# Temperatura_=_20.0
# Concentracion g/m^3_=_790.0
# C_Vs_to_Am_M_A/Vsm_=_25649819763.59163
# pendiente_HvsI_1/m_=_3716.3
# ordenada_HvsI_A/m_=_1297.0
# frecuencia_Hz_=_311387.1807896357
# Promedio de 22 ciclos

Tiempo_(s)	Campo_(V.s)	Magnetizacion_(V.s)	Campo_(kA/m)	Magnetizacion_(A/m)
0.000000e+00	-6.483013e-09	-2.217866e-09	-5.669652e+01	-5.348954e+01
1.000000e-08	-6.479184e-09	-2.199624e-09	-5.666304e+01	-5.350327e+01
2.000000e-08	-6.473091e-09	-2.191048e-09	-5.660976e+01	-5.352361e+01
3.000000e-08	-6.464712e-09	-2.199351e-09	-5.653648e+01	-5.355151e+01
4.000000e-08	-6.453899e-09	-2.193357e-09	-5.644191e+01	-5.358524e+01
5.000000e-08	-6.440644e-09	-2.182107e-09	-5.632600e+01	-5.362042e+01
6.000000e-08	-6.424915e-09	-2.189923e-09	-5.618845e+01	-5.365054e+01
7.000000e-08	-6.406911e-09	-2.196066e-09	-5.603100e+01	-5.366821e+01
8.000000e-08	-6.386921e-09	-2.183135e-09	-5.585617e+01	-5.366670e+01
9.000000e-08	-6.364677e-09	-2.103971e-09	-5.566165e+01	-5.364161e+01
1.000000e-07	-6.339702e-09	-1.997653e-09	-5.544322e+01	-5.359214e+01
1.100000e-07	-6.312098e-09	-2.033486e-09	-5.520182e+01	-5.352180e+01
1.200000e-07	-6.282310e-09	-2.129221e-09	-5.494132e+01	-5.343818e+01
1.300000e-07	-6.250472e-09	-2.068283e-09	-5.466288e+01	-5.335187e+01
1.400000e-07	-6.216448e-09	-2.010600e-09	-5.436532e+01	-5.327470e+01
1.500000e-07	-6.180386e-09	-2.111549e-09	-5.404995e+01	-5.321755e+01
1.600000e-07	-6.142517e-09	-2.172494e-09	-5.371877e+01	-5.318826e+01
1.700000e-07	-6.102602e-09	-2.091221e-09	-5.336970e+01	-5.319002e+01
1.800000e-07	-6.060295e-09	-1.999426e-09	-5.299971e+01	-5.322065e+01
1.900000e-07	-6.015702e-09	-2.073465e-09	-5.260972e+01	-5.327281e+01
2.000000e-07	-5.968932e-09	-2.115028e-09	-5.220071e+01	-5.333532e+01
2.100000e-07	-5.919677e-09	-2.017578e-09	-5.176996e+01	-5.339507e+01
2.200000e-07	-5.867721e-09	-2.069251e-09	-5.131558e+01	-5.343933e+01
2.300000e-07	-5.813158e-09	-2.124741e-09	-5.083841e+01	-5.345791e+01
2.400000e-07	-5.756258e-09	-2.017370e-09	-5.034079e+01	-5.344471e+01
2.500000e-07	-5.697048e-09	-2.002268e-09	-4.982298e+01	-5.339839e+01
2.600000e-07	-5.635544e-09	-2.089326e-09	-4.928510e+01	-5.332212e+01
2.700000e-07	-5.571855e-09	-2.025102e-09	-4.872812e+01	-5.322241e+01
2.800000e-07	-5.505908e-09	-1.946906e-09	-4.815139e+01	-5.310738e+01
2.900000e-07	-5.437727e-09	-2.028775e-09	-4.755512e+01	-5.298490e+01
3.000000e-07	-5.367360e-09	-2.047078e-09	-4.693973e+01	-5.286093e+01
3.100000e-07	-5.294787e-09	-1.979102e-09	-4.630505e+01	-5.273845e+01
3.200000e-07	-5.219938e-09	-1.972765e-09	-4.565047e+01	-5.261715e+01
3.300000e-07	-5.142798e-09	-1.990860e-09	-4.497585e+01	-5.249389e+01
3.400000e-07	-5.063450e-09	-1.974344e-09	-4.428193e+01	-5.236370e+01
3.500000e-07	-4.982023e-09	-1.956829e-09	-4.356982e+01	-5.222109e+01
3.600000e-07	-4.898779e-09	-1.963983e-09	-4.284181e+01	-5.206132e+01
3.700000e-07	-4.813881e-09	-1.963992e-09	-4.209934e+01	-5.188133e+01
3.800000e-07	-4.727316e-09	-1.950891e-09	-4.134230e+01	-5.168009e+01
3.900000e-07	-4.639029e-09	-1.934793e-09	-4.057020e+01	-5.145845e+01
4.000000e-07	-4.549004e-09	-1.925674e-09	-3.978289e+01	-5.121854e+01
4.100000e-07	-4.457256e-09	-1.914291e-09	-3.898052e+01	-5.096283e+01
4.200000e-07	-4.363898e-09	-1.893116e-09	-3.816407e+01	-5.069328e+01
4.300000e-07	-4.268988e-09	-1.887428e-09	-3.733405e+01	-5.041067e+01
4.400000e-07	-4.172440e-09	-1.891640e-09	-3.648969e+01	-5.011427e+01
4.500000e-07	-4.074254e-09	-1.878356e-09	-3.563102e+01	-4.980199e+01
4.600000e-07	-3.974479e-09	-1.857246e-09	-3.475844e+01	-4.947072e+01
4.700000e-07	-3.873256e-09	-1.843679e-09	-3.387322e+01	-4.911698e+01
4.800000e-07	-3.770597e-09	-1.828054e-09	-3.297542e+01	-4.873746e+01
4.900000e-07	-3.666429e-09	-1.810846e-09	-3.206443e+01	-4.832941e+01
5.000000e-07	-3.560879e-09	-1.798147e-09	-3.114136e+01	-4.789078e+01
5.100000e-07	-3.453911e-09	-1.777650e-09	-3.020588e+01	-4.742004e+01
5.200000e-07	-3.345506e-09	-1.750627e-09	-2.925783e+01	-4.691589e+01
5.300000e-07	-3.235825e-09	-1.732982e-09	-2.829863e+01	-4.637677e+01
5.400000e-07	-3.124887e-09	-1.718970e-09	-2.732843e+01	-4.580055e+01
5.500000e-07	-3.012566e-09	-1.694108e-09	-2.634614e+01	-4.518433e+01
5.600000e-07	-2.898892e-09	-1.663736e-09	-2.535202e+01	-4.452443e+01
5.700000e-07	-2.783963e-09	-1.639927e-09	-2.434693e+01	-4.381662e+01
5.800000e-07	-2.667728e-09	-1.615262e-09	-2.333040e+01	-4.305639e+01
5.900000e-07	-2.550268e-09	-1.576850e-09	-2.230317e+01	-4.223926e+01
6.000000e-07	-2.431790e-09	-1.531782e-09	-2.126703e+01	-4.136083e+01
6.100000e-07	-2.312353e-09	-1.494830e-09	-2.022251e+01	-4.041685e+01
6.200000e-07	-2.191961e-09	-1.462431e-09	-1.916963e+01	-3.940288e+01
6.300000e-07	-2.070688e-09	-1.425019e-09	-1.810906e+01	-3.831400e+01
6.400000e-07	-1.948625e-09	-1.382643e-09	-1.704157e+01	-3.714445e+01
6.500000e-07	-1.825833e-09	-1.334710e-09	-1.596770e+01	-3.588743e+01
6.600000e-07	-1.702348e-09	-1.280796e-09	-1.488777e+01	-3.453510e+01
6.700000e-07	-1.578193e-09	-1.222562e-09	-1.380199e+01	-3.307895e+01
6.800000e-07	-1.453438e-09	-1.157030e-09	-1.271095e+01	-3.151040e+01
6.900000e-07	-1.328218e-09	-1.083548e-09	-1.161585e+01	-2.982162e+01
7.000000e-07	-1.202658e-09	-1.012919e-09	-1.051778e+01	-2.800647e+01
7.100000e-07	-1.076759e-09	-9.486415e-10	-9.416743e+00	-2.606137e+01
7.200000e-07	-9.504788e-10	-8.762593e-10	-8.312371e+00	-2.398598e+01
7.300000e-07	-8.238794e-10	-7.868913e-10	-7.205209e+00	-2.178363e+01
7.400000e-07	-6.970565e-10	-6.920789e-10	-6.096092e+00	-1.946148e+01
7.500000e-07	-5.700001e-10	-6.009949e-10	-4.984933e+00	-1.703041e+01
7.600000e-07	-4.426680e-10	-5.023419e-10	-3.871363e+00	-1.450464e+01
7.700000e-07	-3.151447e-10	-3.939808e-10	-2.756123e+00	-1.190125e+01
7.800000e-07	-1.875504e-10	-2.903106e-10	-1.640261e+00	-9.239537e+00
7.900000e-07	-5.988939e-11	-1.960247e-10	-5.238158e-01	-6.540274e+00
8.000000e-07	6.784959e-11	-9.968896e-11	5.933117e-01	-3.824946e+00
8.100000e-07	1.956114e-10	6.145024e-12	1.710639e+00	-1.114883e+00
8.200000e-07	3.233385e-10	1.147570e-10	2.827661e+00	1.569630e+00
8.300000e-07	4.509955e-10	2.195988e-10	3.944072e+00	4.210228e+00
8.400000e-07	5.785510e-10	3.192512e-10	5.059595e+00	6.791245e+00
8.500000e-07	7.059725e-10	4.138976e-10	6.173947e+00	9.300301e+00
8.600000e-07	8.331861e-10	5.047940e-10	7.286481e+00	1.172858e+01
8.700000e-07	9.600953e-10	5.941980e-10	8.396353e+00	1.407073e+01
8.800000e-07	1.086650e-09	6.794668e-10	9.503121e+00	1.632441e+01
8.900000e-07	1.212829e-09	7.599389e-10	1.060661e+01	1.848944e+01
9.000000e-07	1.338618e-09	8.400286e-10	1.170669e+01	2.056683e+01
9.100000e-07	1.463992e-09	9.216576e-10	1.280314e+01	2.255777e+01
9.200000e-07	1.588903e-09	1.000709e-09	1.389553e+01	2.446279e+01
9.300000e-07	1.713226e-09	1.071002e-09	1.498279e+01	2.628133e+01
9.400000e-07	1.836818e-09	1.131779e-09	1.606365e+01	2.801167e+01
9.500000e-07	1.959616e-09	1.188663e-09	1.713757e+01	2.965144e+01
9.600000e-07	2.081605e-09	1.247717e-09	1.820441e+01	3.119828e+01
9.700000e-07	2.202766e-09	1.306220e-09	1.926402e+01	3.265081e+01
9.800000e-07	2.323071e-09	1.358238e-09	2.031612e+01	3.400935e+01
9.900000e-07	2.442408e-09	1.405416e-09	2.135978e+01	3.527645e+01
1.000000e-06	2.560670e-09	1.452403e-09	2.239403e+01	3.645691e+01
1.010000e-06	2.677849e-09	1.497989e-09	2.341881e+01	3.755736e+01
1.020000e-06	2.793871e-09	1.536579e-09	2.443346e+01	3.858546e+01
1.030000e-06	2.908667e-09	1.566289e-09	2.543740e+01	3.954891e+01
1.040000e-06	3.022251e-09	1.595087e-09	2.643073e+01	4.045449e+01
1.050000e-06	3.134582e-09	1.629065e-09	2.741311e+01	4.130737e+01
1.060000e-06	3.245620e-09	1.661997e-09	2.838418e+01	4.211078e+01
1.070000e-06	3.355451e-09	1.687148e-09	2.934470e+01	4.286624e+01
1.080000e-06	3.464167e-09	1.707864e-09	3.029547e+01	4.357414e+01
1.090000e-06	3.571660e-09	1.730549e-09	3.123554e+01	4.423450e+01
1.100000e-06	3.677778e-09	1.754696e-09	3.216358e+01	4.484787e+01
1.110000e-06	3.782487e-09	1.775478e-09	3.307931e+01	4.541589e+01
1.120000e-06	3.885763e-09	1.791892e-09	3.398249e+01	4.594162e+01
1.130000e-06	3.987631e-09	1.809691e-09	3.487337e+01	4.642935e+01
1.140000e-06	4.088101e-09	1.830855e-09	3.575202e+01	4.688408e+01
1.150000e-06	4.187021e-09	1.846828e-09	3.661712e+01	4.731084e+01
1.160000e-06	4.284307e-09	1.855554e-09	3.746792e+01	4.771388e+01
1.170000e-06	4.379951e-09	1.865671e-09	3.830436e+01	4.809616e+01
1.180000e-06	4.473993e-09	1.878001e-09	3.912681e+01	4.845912e+01
1.190000e-06	4.566484e-09	1.890880e-09	3.993567e+01	4.880282e+01
1.200000e-06	4.657305e-09	1.904270e-09	4.072994e+01	4.912647e+01
1.210000e-06	4.746318e-09	1.915133e-09	4.150840e+01	4.942912e+01
1.220000e-06	4.833479e-09	1.921929e-09	4.227066e+01	4.971036e+01
1.230000e-06	4.918819e-09	1.927390e-09	4.301699e+01	4.997079e+01
1.240000e-06	5.002323e-09	1.934959e-09	4.374727e+01	5.021227e+01
1.250000e-06	5.083869e-09	1.942505e-09	4.446042e+01	5.043767e+01
1.260000e-06	5.163378e-09	1.950600e-09	4.515576e+01	5.065038e+01
1.270000e-06	5.240855e-09	1.961051e-09	4.583333e+01	5.085363e+01
1.280000e-06	5.316189e-09	1.969669e-09	4.649216e+01	5.104981e+01
1.290000e-06	5.389257e-09	1.971026e-09	4.713116e+01	5.123999e+01
1.300000e-06	5.460144e-09	1.966982e-09	4.775110e+01	5.142378e+01
1.310000e-06	5.528975e-09	1.966912e-09	4.835305e+01	5.159954e+01
1.320000e-06	5.595677e-09	1.972939e-09	4.893639e+01	5.176494e+01
1.330000e-06	5.660133e-09	1.980385e-09	4.950008e+01	5.191765e+01
1.340000e-06	5.722449e-09	1.988226e-09	5.004506e+01	5.205608e+01
1.350000e-06	5.782769e-09	1.994289e-09	5.057259e+01	5.217990e+01
1.360000e-06	5.840963e-09	1.993771e-09	5.108152e+01	5.229023e+01
1.370000e-06	5.896889e-09	1.988977e-09	5.157061e+01	5.238949e+01
1.380000e-06	5.950505e-09	1.986479e-09	5.203951e+01	5.248091e+01
1.390000e-06	6.001584e-09	1.985255e-09	5.248621e+01	5.256786e+01
1.400000e-06	6.050030e-09	1.984891e-09	5.290990e+01	5.265317e+01
1.410000e-06	6.096125e-09	1.990456e-09	5.331302e+01	5.273863e+01
1.420000e-06	6.140096e-09	1.998986e-09	5.369756e+01	5.282470e+01
1.430000e-06	6.181763e-09	1.999670e-09	5.406195e+01	5.291071e+01
1.440000e-06	6.221019e-09	1.992212e-09	5.440527e+01	5.299517e+01
1.450000e-06	6.258079e-09	1.989562e-09	5.472936e+01	5.307635e+01
1.460000e-06	6.292914e-09	1.992224e-09	5.503402e+01	5.315286e+01
1.470000e-06	6.325316e-09	1.992596e-09	5.531739e+01	5.322404e+01
1.480000e-06	6.355356e-09	1.991807e-09	5.558010e+01	5.329007e+01
1.490000e-06	6.383144e-09	1.994393e-09	5.582312e+01	5.335183e+01
1.500000e-06	6.408450e-09	1.998098e-09	5.604443e+01	5.341050e+01
1.510000e-06	6.431191e-09	1.995849e-09	5.624331e+01	5.346701e+01
1.520000e-06	6.451600e-09	1.989634e-09	5.642179e+01	5.352162e+01
1.530000e-06	6.469604e-09	1.985500e-09	5.657925e+01	5.357371e+01
1.540000e-06	6.484996e-09	1.986306e-09	5.671386e+01	5.362178e+01
1.550000e-06	6.497759e-09	1.990080e-09	5.682547e+01	5.366394e+01
1.560000e-06	6.507783e-09	1.993089e-09	5.691314e+01	5.369848e+01
1.570000e-06	6.515103e-09	1.993662e-09	5.697716e+01	5.372453e+01
1.580000e-06	6.519985e-09	1.991404e-09	5.701986e+01	5.374261e+01
1.590000e-06	6.522407e-09	1.986329e-09	5.704104e+01	5.375481e+01
1.600000e-06	6.522293e-09	1.981437e-09	5.704004e+01	5.376452e+01
1.610000e-06	6.519857e-09	1.985883e-09	5.701874e+01	5.377574e+01
1.620000e-06	6.515200e-09	2.000740e-09	5.697801e+01	5.379210e+01
1.630000e-06	6.508169e-09	2.003779e-09	5.691652e+01	5.381576e+01
1.640000e-06	6.498822e-09	2.001249e-09	5.683478e+01	5.384659e+01
1.650000e-06	6.487215e-09	2.017377e-09	5.673327e+01	5.388168e+01
1.660000e-06	6.473144e-09	2.026557e-09	5.661022e+01	5.391563e+01
1.670000e-06	6.456751e-09	2.016329e-09	5.646685e+01	5.394138e+01
1.680000e-06	6.438381e-09	2.025010e-09	5.630620e+01	5.395161e+01
1.690000e-06	6.417993e-09	2.108430e-09	5.612790e+01	5.394040e+01
1.700000e-06	6.394925e-09	2.200257e-09	5.592617e+01	5.390477e+01
1.710000e-06	6.368752e-09	2.141376e-09	5.569728e+01	5.384574e+01
1.720000e-06	6.339807e-09	2.055370e-09	5.544414e+01	5.376862e+01
1.730000e-06	6.308538e-09	2.136194e-09	5.517069e+01	5.368248e+01
1.740000e-06	6.275230e-09	2.182471e-09	5.487939e+01	5.359870e+01
1.750000e-06	6.240117e-09	2.069738e-09	5.457232e+01	5.352897e+01
1.760000e-06	6.203398e-09	2.047087e-09	5.425119e+01	5.348310e+01
1.770000e-06	6.164715e-09	2.158235e-09	5.391290e+01	5.346709e+01
1.780000e-06	6.123608e-09	2.112249e-09	5.355340e+01	5.348187e+01
1.790000e-06	6.080282e-09	2.034471e-09	5.317450e+01	5.352294e+01
1.800000e-06	6.034721e-09	2.122844e-09	5.277605e+01	5.358113e+01
1.810000e-06	5.986731e-09	2.091578e-09	5.235636e+01	5.364415e+01
1.820000e-06	5.936363e-09	2.007188e-09	5.191588e+01	5.369877e+01
1.830000e-06	5.883412e-09	2.109646e-09	5.145280e+01	5.373312e+01
1.840000e-06	5.827957e-09	2.207193e-09	5.096782e+01	5.373861e+01
1.850000e-06	5.770180e-09	2.115078e-09	5.046254e+01	5.371115e+01
1.860000e-06	5.710134e-09	2.076979e-09	4.993742e+01	5.365144e+01
1.870000e-06	5.647782e-09	2.174095e-09	4.939212e+01	5.356424e+01
1.880000e-06	5.583012e-09	2.124472e-09	4.882568e+01	5.345700e+01
1.890000e-06	5.516005e-09	2.063961e-09	4.823968e+01	5.333795e+01
1.900000e-06	5.446776e-09	2.109359e-09	4.763425e+01	5.321432e+01
1.910000e-06	5.375263e-09	2.122344e-09	4.700884e+01	5.309088e+01
1.920000e-06	5.301567e-09	2.096997e-09	4.636434e+01	5.296918e+01
1.930000e-06	5.225712e-09	2.103438e-09	4.570096e+01	5.284762e+01
1.940000e-06	5.147614e-09	2.147712e-09	4.501796e+01	5.272211e+01
1.950000e-06	5.067337e-09	2.117439e-09	4.431591e+01	5.258731e+01
1.960000e-06	4.985204e-09	2.068819e-09	4.359763e+01	5.243790e+01
1.970000e-06	4.901295e-09	2.073563e-09	4.286381e+01	5.226978e+01
1.980000e-06	4.815530e-09	2.081842e-09	4.211376e+01	5.208074e+01
1.990000e-06	4.727902e-09	2.055992e-09	4.134742e+01	5.187062e+01
2.000000e-06	4.638520e-09	2.050752e-09	4.056574e+01	5.164091e+01
2.010000e-06	4.547506e-09	2.082067e-09	3.976978e+01	5.139399e+01
2.020000e-06	4.454863e-09	2.071412e-09	3.895958e+01	5.113222e+01
2.030000e-06	4.360566e-09	2.037045e-09	3.813492e+01	5.085712e+01
2.040000e-06	4.264600e-09	2.022332e-09	3.729566e+01	5.056884e+01
2.050000e-06	4.167159e-09	2.007190e-09	3.644350e+01	5.026602e+01
2.060000e-06	4.068337e-09	1.980633e-09	3.557926e+01	4.994607e+01
2.070000e-06	3.967976e-09	1.974031e-09	3.470157e+01	4.960566e+01
2.080000e-06	3.866022e-09	1.976679e-09	3.380994e+01	4.924130e+01
2.090000e-06	3.762528e-09	1.965581e-09	3.290484e+01	4.884991e+01
2.100000e-06	3.657543e-09	1.951215e-09	3.198671e+01	4.842902e+01
2.110000e-06	3.551199e-09	1.936536e-09	3.105669e+01	4.797685e+01
2.120000e-06	3.443551e-09	1.908005e-09	3.011527e+01	4.749201e+01
2.130000e-06	3.334554e-09	1.871703e-09	2.916204e+01	4.697315e+01
2.140000e-06	3.224193e-09	1.845689e-09	2.819689e+01	4.641849e+01
2.150000e-06	3.112408e-09	1.828780e-09	2.721929e+01	4.582559e+01
2.160000e-06	2.999306e-09	1.808432e-09	2.623017e+01	4.519119e+01
2.170000e-06	2.884914e-09	1.785788e-09	2.522977e+01	4.451136e+01
2.180000e-06	2.769175e-09	1.768120e-09	2.421758e+01	4.378170e+01
2.190000e-06	2.652255e-09	1.742979e-09	2.319508e+01	4.299769e+01
2.200000e-06	2.534268e-09	1.703337e-09	2.216324e+01	4.215487e+01
2.210000e-06	2.415190e-09	1.657036e-09	2.112185e+01	4.124893e+01
2.220000e-06	2.295040e-09	1.610400e-09	2.007109e+01	4.027557e+01
2.230000e-06	2.173969e-09	1.566544e-09	1.901228e+01	3.923019e+01
2.240000e-06	2.052120e-09	1.528832e-09	1.794666e+01	3.810756e+01
2.250000e-06	1.929542e-09	1.490243e-09	1.687467e+01	3.690148e+01
2.260000e-06	1.806295e-09	1.442028e-09	1.579682e+01	3.560468e+01
2.270000e-06	1.682415e-09	1.388158e-09	1.471344e+01	3.420898e+01
2.280000e-06	1.557899e-09	1.331169e-09	1.362450e+01	3.270574e+01
2.290000e-06	1.432843e-09	1.264652e-09	1.253083e+01	3.108659e+01
2.300000e-06	1.307358e-09	1.186616e-09	1.143342e+01	2.934434e+01
2.310000e-06	1.181457e-09	1.107754e-09	1.033237e+01	2.747382e+01
2.320000e-06	1.055167e-09	1.034577e-09	9.227912e+00	2.547277e+01
2.330000e-06	9.286039e-10	9.566469e-10	8.121068e+00	2.334239e+01
2.340000e-06	8.018228e-10	8.676871e-10	7.012319e+00	2.108766e+01
2.350000e-06	6.747827e-10	7.740239e-10	5.901304e+00	1.871735e+01
2.360000e-06	5.474861e-10	6.756769e-10	4.788046e+00	1.624382e+01
2.370000e-06	4.199763e-10	5.711718e-10	3.672923e+00	1.368261e+01
2.380000e-06	2.922835e-10	4.663204e-10	2.556199e+00	1.105182e+01
2.390000e-06	1.644441e-10	3.637208e-10	1.438193e+00	8.371463e+00
2.400000e-06	3.651049e-11	2.594953e-10	3.193634e-01	5.662730e+00
2.410000e-06	-9.148086e-11	1.511137e-10	-7.999725e-01	2.947143e+00
2.420000e-06	-2.195022e-10	4.218421e-11	-1.919571e+00	2.456957e-01
2.430000e-06	-3.474930e-10	-6.500729e-11	-3.038901e+00	-2.422047e+00
2.440000e-06	-4.753773e-10	-1.725880e-10	-4.157301e+00	-5.038790e+00
2.450000e-06	-6.030972e-10	-2.764607e-10	-5.274262e+00	-7.590221e+00
2.460000e-06	-7.306054e-10	-3.731278e-10	-6.389371e+00	-1.006547e+01
2.470000e-06	-8.578697e-10	-4.633619e-10	-7.502348e+00	-1.245725e+01
2.480000e-06	-9.848515e-10	-5.503744e-10	-8.612853e+00	-1.476157e+01
2.490000e-06	-1.111492e-09	-6.386488e-10	-9.720378e+00	-1.697712e+01
2.500000e-06	-1.237749e-09	-7.249190e-10	-1.082454e+01	-1.910438e+01
2.510000e-06	-1.363571e-09	-8.058251e-10	-1.192490e+01	-2.114454e+01
2.520000e-06	-1.488867e-09	-8.838806e-10	-1.302067e+01	-2.309859e+01
2.530000e-06	-1.613579e-09	-9.619289e-10	-1.411132e+01	-2.496663e+01
2.540000e-06	-1.737645e-09	-1.034983e-09	-1.519633e+01	-2.674758e+01
2.550000e-06	-1.860949e-09	-1.098918e-09	-1.627467e+01	-2.843936e+01
2.560000e-06	-1.983448e-09	-1.158577e-09	-1.734598e+01	-3.003949e+01
2.570000e-06	-2.105162e-09	-1.215821e-09	-1.841042e+01	-3.154595e+01
2.580000e-06	-2.226027e-09	-1.273278e-09	-1.946743e+01	-3.295797e+01
2.590000e-06	-2.345885e-09	-1.330000e-09	-2.051563e+01	-3.427682e+01
2.600000e-06	-2.464662e-09	-1.377958e-09	-2.155438e+01	-3.550603e+01
2.610000e-06	-2.582356e-09	-1.422221e-09	-2.258366e+01	-3.665124e+01
2.620000e-06	-2.698949e-09	-1.469714e-09	-2.360332e+01	-3.771966e+01
2.630000e-06	-2.814319e-09	-1.515900e-09	-2.461227e+01	-3.871909e+01
2.640000e-06	-2.928358e-09	-1.552775e-09	-2.560958e+01	-3.965694e+01
2.650000e-06	-3.041118e-09	-1.582632e-09	-2.659572e+01	-4.053935e+01
2.660000e-06	-3.152610e-09	-1.616477e-09	-2.757076e+01	-4.137068e+01
2.670000e-06	-3.262847e-09	-1.654169e-09	-2.853482e+01	-4.215339e+01
2.680000e-06	-3.371881e-09	-1.687045e-09	-2.948837e+01	-4.288840e+01
2.690000e-06	-3.479731e-09	-1.712665e-09	-3.043157e+01	-4.357586e+01
2.700000e-06	-3.586381e-09	-1.738847e-09	-3.136427e+01	-4.421590e+01
2.710000e-06	-3.691789e-09	-1.767620e-09	-3.228610e+01	-4.480950e+01
2.720000e-06	-3.795816e-09	-1.792393e-09	-3.319586e+01	-4.535888e+01
2.730000e-06	-3.898337e-09	-1.812981e-09	-3.409244e+01	-4.586769e+01
2.740000e-06	-3.999374e-09	-1.834845e-09	-3.497606e+01	-4.634058e+01
2.750000e-06	-4.098925e-09	-1.856318e-09	-3.584667e+01	-4.678268e+01
2.760000e-06	-4.197020e-09	-1.871272e-09	-3.670455e+01	-4.719876e+01
2.770000e-06	-4.293664e-09	-1.883870e-09	-3.754974e+01	-4.759258e+01
2.780000e-06	-4.388720e-09	-1.897977e-09	-3.838105e+01	-4.796643e+01
2.790000e-06	-4.482113e-09	-1.911327e-09	-3.919781e+01	-4.832114e+01
2.800000e-06	-4.573797e-09	-1.925892e-09	-3.999962e+01	-4.865631e+01
2.810000e-06	-4.663761e-09	-1.945790e-09	-4.078639e+01	-4.897101e+01
2.820000e-06	-4.751952e-09	-1.968122e-09	-4.155766e+01	-4.926442e+01
2.830000e-06	-4.838220e-09	-1.983701e-09	-4.231211e+01	-4.953654e+01
2.840000e-06	-4.922539e-09	-1.990418e-09	-4.304952e+01	-4.978850e+01
2.850000e-06	-5.005013e-09	-1.994536e-09	-4.377079e+01	-5.002263e+01
2.860000e-06	-5.085641e-09	-2.001162e-09	-4.447591e+01	-5.024211e+01
2.870000e-06	-5.164173e-09	-2.009940e-09	-4.516270e+01	-5.045035e+01
2.880000e-06	-5.240410e-09	-2.019981e-09	-4.582943e+01	-5.065029e+01
2.890000e-06	-5.314438e-09	-2.033486e-09	-4.647684e+01	-5.084380e+01
2.900000e-06	-5.386366e-09	-2.049557e-09	-4.710587e+01	-5.103131e+01
2.910000e-06	-5.456136e-09	-2.062399e-09	-4.771604e+01	-5.121186e+01
2.920000e-06	-5.523739e-09	-2.069910e-09	-4.830726e+01	-5.138343e+01
2.930000e-06	-5.589271e-09	-2.075997e-09	-4.888036e+01	-5.154359e+01
2.940000e-06	-5.652712e-09	-2.080919e-09	-4.943518e+01	-5.169025e+01
