# Temperatura_=_20.0
# Concentracion g/m^3_=_950.0
# C_Vs_to_Am_M_A/Vsm_=_25649819763.59163
# pendiente_HvsI_1/m_=_3716.3
# ordenada_HvsI_A/m_=_1297.0
# frecuencia_Hz_=_311438.65859591664
# Promedio de 28 ciclos

Tiempo_(s)	Campo_(V.s)	Magnetizacion_(V.s)	Campo_(kA/m)	Magnetizacion_(A/m)
0.000000e+00	-6.674858e-09	-3.372934e-09	-5.669539e+01	-8.381538e+01
1.000000e-08	-6.671660e-09	-3.351922e-09	-5.666823e+01	-8.386359e+01
2.000000e-08	-6.666051e-09	-3.353289e-09	-5.662058e+01	-8.391785e+01
3.000000e-08	-6.658171e-09	-3.376149e-09	-5.655366e+01	-8.396367e+01
4.000000e-08	-6.647808e-09	-3.370970e-09	-5.646563e+01	-8.398702e+01
5.000000e-08	-6.634879e-09	-3.363138e-09	-5.635582e+01	-8.397845e+01
6.000000e-08	-6.619332e-09	-3.387161e-09	-5.622377e+01	-8.393615e+01
7.000000e-08	-6.601374e-09	-3.415770e-09	-5.607123e+01	-8.386694e+01
8.000000e-08	-6.581384e-09	-3.386576e-09	-5.590144e+01	-8.378489e+01
9.000000e-08	-6.558989e-09	-3.233313e-09	-5.571122e+01	-8.370787e+01
1.000000e-07	-6.533692e-09	-3.189946e-09	-5.549635e+01	-8.365308e+01
1.100000e-07	-6.505741e-09	-3.366445e-09	-5.525894e+01	-8.363254e+01
1.200000e-07	-6.475595e-09	-3.367923e-09	-5.500288e+01	-8.365011e+01
1.300000e-07	-6.443327e-09	-3.214577e-09	-5.472880e+01	-8.370060e+01
1.400000e-07	-6.408829e-09	-3.258806e-09	-5.443578e+01	-8.377149e+01
1.500000e-07	-6.372358e-09	-3.404566e-09	-5.412600e+01	-8.384652e+01
1.600000e-07	-6.334008e-09	-3.362902e-09	-5.380026e+01	-8.391039e+01
1.700000e-07	-6.293255e-09	-3.232982e-09	-5.345411e+01	-8.395310e+01
1.800000e-07	-6.250006e-09	-3.341802e-09	-5.308676e+01	-8.397274e+01
1.900000e-07	-6.204476e-09	-3.349104e-09	-5.270004e+01	-8.397596e+01
2.000000e-07	-6.156540e-09	-3.159110e-09	-5.229287e+01	-8.397588e+01
2.100000e-07	-6.105969e-09	-3.244481e-09	-5.186333e+01	-8.398808e+01
2.200000e-07	-6.052636e-09	-3.313404e-09	-5.141033e+01	-8.402574e+01
2.300000e-07	-5.996794e-09	-3.138745e-09	-5.093602e+01	-8.409517e+01
2.400000e-07	-5.938547e-09	-3.139371e-09	-5.044127e+01	-8.419313e+01
2.500000e-07	-5.877844e-09	-3.318265e-09	-4.992567e+01	-8.430653e+01
2.600000e-07	-5.814916e-09	-3.248577e-09	-4.939117e+01	-8.441470e+01
2.700000e-07	-5.749672e-09	-3.141907e-09	-4.883699e+01	-8.449371e+01
2.800000e-07	-5.682068e-09	-3.266580e-09	-4.826278e+01	-8.452154e+01
2.900000e-07	-5.612198e-09	-3.302675e-09	-4.766931e+01	-8.448288e+01
3.000000e-07	-5.540051e-09	-3.209788e-09	-4.705650e+01	-8.437232e+01
3.100000e-07	-5.465504e-09	-3.193621e-09	-4.642331e+01	-8.419517e+01
3.200000e-07	-5.388498e-09	-3.250813e-09	-4.576923e+01	-8.396588e+01
3.300000e-07	-5.309172e-09	-3.221948e-09	-4.509545e+01	-8.370433e+01
3.400000e-07	-5.227672e-09	-3.145182e-09	-4.440320e+01	-8.343125e+01
3.500000e-07	-5.144292e-09	-3.172186e-09	-4.369498e+01	-8.316365e+01
3.600000e-07	-5.059204e-09	-3.215530e-09	-4.297226e+01	-8.291161e+01
3.700000e-07	-4.972359e-09	-3.173349e-09	-4.223460e+01	-8.267687e+01
3.800000e-07	-4.883668e-09	-3.143519e-09	-4.148127e+01	-8.245360e+01
3.900000e-07	-4.793106e-09	-3.177008e-09	-4.071205e+01	-8.223086e+01
4.000000e-07	-4.700741e-09	-3.143116e-09	-3.992751e+01	-8.199597e+01
4.100000e-07	-4.606670e-09	-3.080482e-09	-3.912848e+01	-8.173792e+01
4.200000e-07	-4.510933e-09	-3.096921e-09	-3.831531e+01	-8.144989e+01
4.300000e-07	-4.413501e-09	-3.117817e-09	-3.748774e+01	-8.113028e+01
4.400000e-07	-4.314352e-09	-3.087324e-09	-3.664558e+01	-8.078223e+01
4.500000e-07	-4.213545e-09	-3.078700e-09	-3.578934e+01	-8.041185e+01
4.600000e-07	-4.111232e-09	-3.087806e-09	-3.492030e+01	-8.002571e+01
4.700000e-07	-4.007383e-09	-3.054123e-09	-3.403823e+01	-7.962851e+01
4.800000e-07	-3.901933e-09	-3.017809e-09	-3.314254e+01	-7.922132e+01
4.900000e-07	-3.794957e-09	-3.010582e-09	-3.223391e+01	-7.880108e+01
5.000000e-07	-3.686501e-09	-2.993352e-09	-3.131269e+01	-7.836116e+01
5.100000e-07	-3.576634e-09	-2.962431e-09	-3.037950e+01	-7.789293e+01
5.200000e-07	-3.465338e-09	-2.957848e-09	-2.943417e+01	-7.738766e+01
5.300000e-07	-3.352554e-09	-2.955034e-09	-2.847619e+01	-7.683832e+01
5.400000e-07	-3.238296e-09	-2.920242e-09	-2.750570e+01	-7.624065e+01
5.500000e-07	-3.122546e-09	-2.880827e-09	-2.652254e+01	-7.559324e+01
5.600000e-07	-3.005442e-09	-2.862330e-09	-2.552787e+01	-7.489671e+01
5.700000e-07	-2.887108e-09	-2.836605e-09	-2.452275e+01	-7.415208e+01
5.800000e-07	-2.767536e-09	-2.795987e-09	-2.350713e+01	-7.335891e+01
5.900000e-07	-2.646833e-09	-2.767286e-09	-2.248189e+01	-7.251374e+01
6.000000e-07	-2.525092e-09	-2.743878e-09	-2.144784e+01	-7.160909e+01
6.100000e-07	-2.402323e-09	-2.706415e-09	-2.040506e+01	-7.063355e+01
6.200000e-07	-2.278549e-09	-2.661247e-09	-1.935374e+01	-6.957266e+01
6.300000e-07	-2.153847e-09	-2.615638e-09	-1.829454e+01	-6.841045e+01
6.400000e-07	-2.028371e-09	-2.557558e-09	-1.722875e+01	-6.713116e+01
6.500000e-07	-1.902200e-09	-2.499187e-09	-1.615708e+01	-6.572047e+01
6.600000e-07	-1.775340e-09	-2.447603e-09	-1.507954e+01	-6.416585e+01
6.700000e-07	-1.647817e-09	-2.384986e-09	-1.399638e+01	-6.245570e+01
6.800000e-07	-1.519717e-09	-2.307320e-09	-1.290831e+01	-6.057729e+01
6.900000e-07	-1.391140e-09	-2.227126e-09	-1.181620e+01	-5.851386e+01
7.000000e-07	-1.262113e-09	-2.145226e-09	-1.072026e+01	-5.624164e+01
7.100000e-07	-1.132607e-09	-2.045207e-09	-9.620254e+00	-5.372752e+01
7.200000e-07	-1.002686e-09	-1.928668e-09	-8.516719e+00	-5.092851e+01
7.300000e-07	-8.724885e-10	-1.807752e-09	-7.410841e+00	-4.779349e+01
7.400000e-07	-7.420503e-10	-1.676724e-09	-6.302915e+00	-4.426765e+01
7.500000e-07	-6.113647e-10	-1.520410e-09	-5.192889e+00	-4.029951e+01
7.600000e-07	-4.804798e-10	-1.341990e-09	-4.081170e+00	-3.584956e+01
7.700000e-07	-3.494364e-10	-1.150260e-09	-2.968104e+00	-3.089938e+01
7.800000e-07	-2.182665e-10	-9.429190e-10	-1.853964e+00	-2.545955e+01
7.900000e-07	-8.699403e-11	-7.175824e-10	-7.389533e-01	-1.957478e+01
8.000000e-07	4.434908e-11	-4.763002e-10	3.766576e-01	-1.332494e+01
8.100000e-07	1.757268e-10	-2.223452e-10	1.492563e+00	-6.821315e+00
8.200000e-07	3.070847e-10	3.709776e-11	2.608300e+00	-1.982173e-01
8.300000e-07	4.383828e-10	2.935330e-10	3.723528e+00	6.399059e+00
8.400000e-07	5.695772e-10	5.460732e-10	4.837876e+00	1.282816e+01
8.500000e-07	7.006053e-10	7.873499e-10	5.950811e+00	1.896332e+01
8.600000e-07	8.314435e-10	1.007382e-09	7.062134e+00	2.470660e+01
8.700000e-07	9.620448e-10	1.204913e-09	8.171445e+00	2.999487e+01
8.800000e-07	1.092338e-09	1.385540e-09	9.278141e+00	3.480159e+01
8.900000e-07	1.222251e-09	1.550525e-09	1.038161e+01	3.913340e+01
9.000000e-07	1.351713e-09	1.699546e-09	1.148124e+01	4.302249e+01
9.100000e-07	1.480675e-09	1.834420e-09	1.257662e+01	4.651644e+01
9.200000e-07	1.609101e-09	1.957119e-09	1.366746e+01	4.966770e+01
9.300000e-07	1.736930e-09	2.072540e-09	1.475322e+01	5.252472e+01
9.400000e-07	1.864039e-09	2.174874e-09	1.583286e+01	5.512610e+01
9.500000e-07	1.990361e-09	2.261961e-09	1.690583e+01	5.749855e+01
9.600000e-07	2.115953e-09	2.340347e-09	1.797260e+01	5.965834e+01
9.700000e-07	2.240803e-09	2.413950e-09	1.903306e+01	6.161521e+01
9.800000e-07	2.364749e-09	2.480102e-09	2.008584e+01	6.337724e+01
9.900000e-07	2.487675e-09	2.537755e-09	2.112996e+01	6.495514e+01
1.000000e-06	2.609578e-09	2.591611e-09	2.216538e+01	6.636479e+01
1.010000e-06	2.730447e-09	2.641651e-09	2.319204e+01	6.762735e+01
1.020000e-06	2.850234e-09	2.685885e-09	2.420949e+01	6.876731e+01
1.030000e-06	2.968861e-09	2.723473e-09	2.521709e+01	6.980904e+01
1.040000e-06	3.086291e-09	2.758115e-09	2.621452e+01	7.077319e+01
1.050000e-06	3.202423e-09	2.790656e-09	2.720094e+01	7.167392e+01
1.060000e-06	3.317177e-09	2.821559e-09	2.817564e+01	7.251800e+01
1.070000e-06	3.430583e-09	2.848822e-09	2.913890e+01	7.330577e+01
1.080000e-06	3.542655e-09	2.871501e-09	3.009082e+01	7.403384e+01
1.090000e-06	3.653376e-09	2.895703e-09	3.103127e+01	7.469849e+01
1.100000e-06	3.762819e-09	2.919872e-09	3.196086e+01	7.529894e+01
1.110000e-06	3.870963e-09	2.938870e-09	3.287943e+01	7.583923e+01
1.120000e-06	3.977668e-09	2.954556e-09	3.378577e+01	7.632855e+01
1.130000e-06	4.082900e-09	2.971815e-09	3.467960e+01	7.677957e+01
1.140000e-06	4.186580e-09	2.987384e-09	3.556024e+01	7.720576e+01
1.150000e-06	4.288697e-09	3.000744e-09	3.642761e+01	7.761815e+01
1.160000e-06	4.389285e-09	3.016093e-09	3.728199e+01	7.802290e+01
1.170000e-06	4.488214e-09	3.031782e-09	3.812228e+01	7.842018e+01
1.180000e-06	4.585374e-09	3.045627e-09	3.894755e+01	7.880483e+01
1.190000e-06	4.680725e-09	3.057088e-09	3.975745e+01	7.916857e+01
1.200000e-06	4.774349e-09	3.066205e-09	4.055268e+01	7.950308e+01
1.210000e-06	4.866296e-09	3.072969e-09	4.133367e+01	7.980293e+01
1.220000e-06	4.956393e-09	3.080276e-09	4.209894e+01	8.006767e+01
1.230000e-06	5.044493e-09	3.090641e-09	4.284725e+01	8.030227e+01
1.240000e-06	5.130640e-09	3.101713e-09	4.357897e+01	8.051588e+01
1.250000e-06	5.214928e-09	3.109945e-09	4.429491e+01	8.071939e+01
1.260000e-06	5.297270e-09	3.116324e-09	4.499431e+01	8.092238e+01
1.270000e-06	5.377487e-09	3.122129e-09	4.567566e+01	8.113057e+01
1.280000e-06	5.455545e-09	3.123889e-09	4.633868e+01	8.134445e+01
1.290000e-06	5.531380e-09	3.123605e-09	4.698281e+01	8.155950e+01
1.300000e-06	5.604884e-09	3.127844e-09	4.760715e+01	8.176790e+01
1.310000e-06	5.676138e-09	3.135252e-09	4.821237e+01	8.196129e+01
1.320000e-06	5.745253e-09	3.141578e-09	4.879942e+01	8.213349e+01
1.330000e-06	5.812164e-09	3.148296e-09	4.936776e+01	8.228260e+01
1.340000e-06	5.876780e-09	3.153812e-09	4.991659e+01	8.241157e+01
1.350000e-06	5.939200e-09	3.154441e-09	5.044679e+01	8.252738e+01
1.360000e-06	5.999544e-09	3.151701e-09	5.095934e+01	8.263877e+01
1.370000e-06	6.057664e-09	3.149767e-09	5.145300e+01	8.275359e+01
1.380000e-06	6.113439e-09	3.150862e-09	5.192675e+01	8.287634e+01
1.390000e-06	6.166845e-09	3.155146e-09	5.238037e+01	8.300683e+01
1.400000e-06	6.217612e-09	3.161398e-09	5.281159e+01	8.314040e+01
1.410000e-06	6.265688e-09	3.166956e-09	5.321993e+01	8.326951e+01
1.420000e-06	6.311399e-09	3.169701e-09	5.360820e+01	8.338630e+01
1.430000e-06	6.354893e-09	3.167502e-09	5.397763e+01	8.348531e+01
1.440000e-06	6.395956e-09	3.162168e-09	5.432641e+01	8.356535e+01
1.450000e-06	6.434564e-09	3.159969e-09	5.465435e+01	8.363007e+01
1.460000e-06	6.470944e-09	3.162054e-09	5.496336e+01	8.368692e+01
1.470000e-06	6.504920e-09	3.165240e-09	5.525195e+01	8.374476e+01
1.480000e-06	6.536348e-09	3.169770e-09	5.551889e+01	8.381100e+01
1.490000e-06	6.565437e-09	3.174303e-09	5.576597e+01	8.388902e+01
1.500000e-06	6.592110e-09	3.175751e-09	5.599253e+01	8.397685e+01
1.510000e-06	6.616131e-09	3.172795e-09	5.619656e+01	8.406745e+01
1.520000e-06	6.637633e-09	3.165687e-09	5.637920e+01	8.415070e+01
1.530000e-06	6.656773e-09	3.160003e-09	5.654177e+01	8.421643e+01
1.540000e-06	6.673321e-09	3.158474e-09	5.668233e+01	8.425766e+01
1.550000e-06	6.687138e-09	3.159738e-09	5.679969e+01	8.427303e+01
1.560000e-06	6.698154e-09	3.161457e-09	5.689326e+01	8.426754e+01
1.570000e-06	6.706347e-09	3.162549e-09	5.696285e+01	8.425148e+01
1.580000e-06	6.711962e-09	3.160739e-09	5.701054e+01	8.423759e+01
1.590000e-06	6.715079e-09	3.154599e-09	5.703702e+01	8.423735e+01
1.600000e-06	6.715607e-09	3.145256e-09	5.704150e+01	8.425751e+01
1.610000e-06	6.713676e-09	3.149105e-09	5.702510e+01	8.429780e+01
1.620000e-06	6.709497e-09	3.167634e-09	5.698961e+01	8.435066e+01
1.630000e-06	6.702900e-09	3.166028e-09	5.693357e+01	8.440312e+01
1.640000e-06	6.693875e-09	3.160182e-09	5.685692e+01	8.444038e+01
1.650000e-06	6.682563e-09	3.177057e-09	5.676083e+01	8.445004e+01
1.660000e-06	6.668741e-09	3.167327e-09	5.664343e+01	8.442589e+01
1.670000e-06	6.652510e-09	3.115659e-09	5.650557e+01	8.437012e+01
1.680000e-06	6.634230e-09	3.126888e-09	5.635030e+01	8.429318e+01
1.690000e-06	6.613769e-09	3.284375e-09	5.617651e+01	8.421140e+01
1.700000e-06	6.590388e-09	3.322805e-09	5.597792e+01	8.414293e+01
1.710000e-06	6.563754e-09	3.143778e-09	5.575169e+01	8.410307e+01
1.720000e-06	6.534294e-09	3.157458e-09	5.550147e+01	8.410036e+01
1.730000e-06	6.502523e-09	3.291693e-09	5.523160e+01	8.413444e+01
1.740000e-06	6.468733e-09	3.201750e-09	5.494460e+01	8.419644e+01
1.750000e-06	6.433252e-09	3.134764e-09	5.464322e+01	8.427156e+01
1.760000e-06	6.396108e-09	3.295875e-09	5.432773e+01	8.434340e+01
1.770000e-06	6.356630e-09	3.278904e-09	5.399241e+01	8.439863e+01
1.780000e-06	6.314662e-09	3.173828e-09	5.363594e+01	8.443074e+01
1.790000e-06	6.270502e-09	3.331565e-09	5.326085e+01	8.444184e+01
1.800000e-06	6.223921e-09	3.355351e-09	5.286520e+01	8.444193e+01
1.810000e-06	6.174838e-09	3.217803e-09	5.244830e+01	8.444583e+01
1.820000e-06	6.123118e-09	3.285777e-09	5.200899e+01	8.446862e+01
1.830000e-06	6.068706e-09	3.474775e-09	5.154683e+01	8.452080e+01
1.840000e-06	6.011897e-09	3.413106e-09	5.106430e+01	8.460449e+01
1.850000e-06	5.952714e-09	3.299852e-09	5.056161e+01	8.471181e+01
1.860000e-06	5.891206e-09	3.453330e-09	5.003917e+01	8.482580e+01
1.870000e-06	5.827231e-09	3.447824e-09	4.949577e+01	8.492368e+01
1.880000e-06	5.760860e-09	3.319816e-09	4.893203e+01	8.498177e+01
1.890000e-06	5.692172e-09	3.339279e-09	4.834860e+01	8.498061e+01
1.900000e-06	5.621057e-09	3.409023e-09	4.774456e+01	8.490919e+01
1.910000e-06	5.547696e-09	3.369354e-09	4.712144e+01	8.476705e+01
1.920000e-06	5.472098e-09	3.316617e-09	4.647933e+01	8.456403e+01
1.930000e-06	5.394222e-09	3.425909e-09	4.581786e+01	8.431759e+01
1.940000e-06	5.314086e-09	3.413827e-09	4.513719e+01	8.404859e+01
1.950000e-06	5.231913e-09	3.298842e-09	4.443923e+01	8.377654e+01
1.960000e-06	5.147854e-09	3.297995e-09	4.372524e+01	8.351557e+01
1.970000e-06	5.061793e-09	3.342271e-09	4.299425e+01	8.327197e+01
1.980000e-06	4.973801e-09	3.288942e-09	4.224686e+01	8.304381e+01
1.990000e-06	4.884014e-09	3.265045e-09	4.148421e+01	8.282252e+01
2.000000e-06	4.792498e-09	3.337482e-09	4.070689e+01	8.259595e+01
2.010000e-06	4.699227e-09	3.328785e-09	3.991466e+01	8.235180e+01
2.020000e-06	4.604201e-09	3.273697e-09	3.910753e+01	8.208075e+01
2.030000e-06	4.507475e-09	3.264216e-09	3.828595e+01	8.177833e+01
2.040000e-06	4.409171e-09	3.255239e-09	3.745096e+01	8.144528e+01
2.050000e-06	4.309320e-09	3.206427e-09	3.660284e+01	8.108637e+01
2.060000e-06	4.207852e-09	3.200952e-09	3.574099e+01	8.070822e+01
2.070000e-06	4.104715e-09	3.221153e-09	3.486495e+01	8.031682e+01
2.080000e-06	3.999954e-09	3.202895e-09	3.397513e+01	7.991535e+01
2.090000e-06	3.893769e-09	3.174946e-09	3.307321e+01	7.950297e+01
2.100000e-06	3.786141e-09	3.166470e-09	3.215903e+01	7.907486e+01
2.110000e-06	3.677036e-09	3.145575e-09	3.123231e+01	7.862324e+01
2.120000e-06	3.566515e-09	3.104490e-09	3.029356e+01	7.813921e+01
2.130000e-06	3.454516e-09	3.084530e-09	2.934225e+01	7.761462e+01
2.140000e-06	3.340995e-09	3.080196e-09	2.837802e+01	7.704363e+01
2.150000e-06	3.225978e-09	3.056011e-09	2.740108e+01	7.642334e+01
2.160000e-06	3.109539e-09	3.023415e-09	2.641207e+01	7.575343e+01
2.170000e-06	2.991705e-09	3.004111e-09	2.541120e+01	7.503492e+01
2.180000e-06	2.872566e-09	2.971700e-09	2.439925e+01	7.426839e+01
2.190000e-06	2.752257e-09	2.925807e-09	2.337736e+01	7.345216e+01
2.200000e-06	2.630862e-09	2.892780e-09	2.234625e+01	7.258099e+01
2.210000e-06	2.508462e-09	2.864184e-09	2.130660e+01	7.164555e+01
2.220000e-06	2.385120e-09	2.821889e-09	2.025895e+01	7.063285e+01
2.230000e-06	2.260865e-09	2.779784e-09	1.920354e+01	6.952754e+01
2.240000e-06	2.135687e-09	2.739459e-09	1.814030e+01	6.831355e+01
2.250000e-06	2.009690e-09	2.682833e-09	1.707010e+01	6.697565e+01
2.260000e-06	1.883028e-09	2.615458e-09	1.599425e+01	6.550038e+01
2.270000e-06	1.755699e-09	2.553106e-09	1.491274e+01	6.387583e+01
2.280000e-06	1.627711e-09	2.490103e-09	1.382562e+01	6.209018e+01
2.290000e-06	1.499178e-09	2.415614e-09	1.273387e+01	6.012924e+01
2.300000e-06	1.370166e-09	2.332088e-09	1.163806e+01	5.797335e+01
2.310000e-06	1.240703e-09	2.243394e-09	1.053842e+01	5.559467e+01
2.320000e-06	1.110879e-09	2.141422e-09	9.435709e+00	5.295547e+01
2.330000e-06	9.807864e-10	2.021791e-09	8.330715e+00	5.000866e+01
2.340000e-06	8.504356e-10	1.888192e-09	7.223530e+00	4.670069e+01
2.350000e-06	7.198114e-10	1.739279e-09	6.114024e+00	4.297730e+01
2.360000e-06	5.889026e-10	1.572803e-09	5.002100e+00	3.879139e+01
2.370000e-06	4.577405e-10	1.390290e-09	3.888026e+00	3.411204e+01
2.380000e-06	3.263858e-10	1.193065e-09	2.772316e+00	2.893336e+01
2.390000e-06	1.948844e-10	9.784024e-10	1.655360e+00	2.328121e+01
2.400000e-06	6.326513e-11	7.465189e-10	5.374028e-01	1.721666e+01
2.410000e-06	-6.842770e-11	4.982196e-10	-5.811793e-01	1.083480e+01
2.420000e-06	-2.001334e-10	2.355489e-10	-1.699871e+00	4.258812e+00
2.430000e-06	-3.318176e-10	-3.249161e-11	-2.818380e+00	-2.370287e+00
2.440000e-06	-4.634013e-10	-2.949847e-10	-3.936035e+00	-8.906791e+00
2.450000e-06	-5.948156e-10	-5.430175e-10	-5.052252e+00	-1.521440e+01
2.460000e-06	-7.260289e-10	-7.746107e-10	-6.166761e+00	-2.117899e+01
2.470000e-06	-8.569886e-10	-9.885218e-10	-7.279117e+00	-2.671809e+01
2.480000e-06	-9.876405e-10	-1.183062e-09	-8.388859e+00	-3.178553e+01
2.490000e-06	-1.117934e-09	-1.360086e-09	-9.495560e+00	-3.637076e+01
2.500000e-06	-1.247853e-09	-1.522525e-09	-1.059907e+01	-4.049333e+01
2.510000e-06	-1.377368e-09	-1.672443e-09	-1.169916e+01	-4.419382e+01
2.520000e-06	-1.506408e-09	-1.810629e-09	-1.279521e+01	-4.752332e+01
2.530000e-06	-1.634863e-09	-1.936660e-09	-1.388630e+01	-5.053338e+01
2.540000e-06	-1.762609e-09	-2.047369e-09	-1.497135e+01	-5.326839e+01
2.550000e-06	-1.889602e-09	-2.142163e-09	-1.605002e+01	-5.576152e+01
2.560000e-06	-2.015833e-09	-2.225729e-09	-1.712220e+01	-5.803431e+01
2.570000e-06	-2.141226e-09	-2.302864e-09	-1.818727e+01	-6.009944e+01
2.580000e-06	-2.265726e-09	-2.375836e-09	-1.924476e+01	-6.196529e+01
2.590000e-06	-2.389246e-09	-2.444897e-09	-2.029393e+01	-6.364071e+01
2.600000e-06	-2.511716e-09	-2.509282e-09	-2.133417e+01	-6.513860e+01
2.610000e-06	-2.633197e-09	-2.568922e-09	-2.236601e+01	-6.647741e+01
2.620000e-06	-2.753596e-09	-2.621747e-09	-2.338866e+01	-6.768019e+01
2.630000e-06	-2.872776e-09	-2.666014e-09	-2.440096e+01	-6.877182e+01
2.640000e-06	-2.990744e-09	-2.702837e-09	-2.540297e+01	-6.977539e+01
2.650000e-06	-3.107488e-09	-2.736119e-09	-2.639458e+01	-7.070878e+01
2.660000e-06	-3.222871e-09	-2.770559e-09	-2.737463e+01	-7.158278e+01
2.670000e-06	-3.336770e-09	-2.806425e-09	-2.834206e+01	-7.240094e+01
2.680000e-06	-3.449244e-09	-2.843733e-09	-2.929740e+01	-7.316149e+01
2.690000e-06	-3.560346e-09	-2.879464e-09	-3.024108e+01	-7.386046e+01
2.700000e-06	-3.670088e-09	-2.907608e-09	-3.117322e+01	-7.449515e+01
2.710000e-06	-3.778537e-09	-2.927595e-09	-3.209438e+01	-7.506685e+01
2.720000e-06	-3.885714e-09	-2.945349e-09	-3.300473e+01	-7.558204e+01
2.730000e-06	-3.991577e-09	-2.965116e-09	-3.390392e+01	-7.605182e+01
2.740000e-06	-4.095992e-09	-2.983967e-09	-3.479080e+01	-7.648959e+01
2.750000e-06	-4.198793e-09	-3.001569e-09	-3.566398e+01	-7.690808e+01
2.760000e-06	-4.299972e-09	-3.021046e-09	-3.652338e+01	-7.731631e+01
2.770000e-06	-4.399532e-09	-3.042258e-09	-3.736903e+01	-7.771770e+01
2.780000e-06	-4.497516e-09	-3.061799e-09	-3.820130e+01	-7.810981e+01
2.790000e-06	-4.593915e-09	-3.077357e-09	-3.902010e+01	-7.848568e+01
2.800000e-06	-4.688557e-09	-3.090650e-09	-3.982398e+01	-7.883664e+01
2.810000e-06	-4.781384e-09	-3.103122e-09	-4.061244e+01	-7.915536e+01
2.820000e-06	-4.872390e-09	-3.114721e-09	-4.138544e+01	-7.943854e+01
2.830000e-06	-4.961546e-09	-3.125535e-09	-4.214271e+01	-7.968827e+01
2.840000e-06	-5.048717e-09	-3.134903e-09	-4.288313e+01	-7.991168e+01
2.850000e-06	-5.133833e-09	-3.142967e-09	-4.360610e+01	-8.011909e+01
2.860000e-06	-5.216982e-09	-3.154841e-09	-4.431236e+01	-8.032114e+01
2.870000e-06	-5.298202e-09	-3.171661e-09	-4.500223e+01	-8.052588e+01
2.880000e-06	-5.377299e-09	-3.186723e-09	-4.567407e+01	-8.073672e+01
2.890000e-06	-5.454051e-09	-3.196998e-09	-4.632599e+01	-8.095170e+01
2.900000e-06	-5.528512e-09	-3.203845e-09	-4.695845e+01	-8.116451e+01
2.910000e-06	-5.600808e-09	-3.209696e-09	-4.757253e+01	-8.136671e+01
2.920000e-06	-5.670897e-09	-3.216546e-09	-4.816785e+01	-8.155065e+01
2.930000e-06	-5.738736e-09	-3.224534e-09	-4.874407e+01	-8.171193e+01
